SPECIES
    NAME HELIUM
    TYPE NEUTRAL
    MASS 6.69e-27
    DENSITY 1e23
    TEMPERATURE 300.0

SPECIES
    NAME ELECTRON
    DT 1e-8
    TYPE ELECTRON
    MASS 9.11e-31
    CHARGE -1.602189e-19
    DENSITY 1e17
    TEMPERATURE 10000.
    EMAX 30.


INTERACTION
    NAME ELECTRON_He_ELASTIC
    TYPE ELASTIC
    PRIMARY ELECTRON
    SECONDARY HELIUM
    CROSS_SECTION
# the unit of cross secition is m^2, energy in eV
# http://jila.colorado.edu/~avp/collision_data/ionneutral/IONATOM.TXT
            0     4.96e-20
        0.001     4.98e-20
        0.002     5.02e-20
        0.003     5.07e-20
        0.005     5.12e-20
        0.007     5.15e-20
       0.0085     5.18e-20
         0.01     5.21e-20
        0.015     5.28e-20
         0.02     5.35e-20
         0.03     5.46e-20
         0.04     5.54e-20
         0.05     5.62e-20
         0.07     5.74e-20
          0.1     5.86e-20
         0.12     5.94e-20
         0.15     6.04e-20
         0.17     6.08e-20
          0.2     6.16e-20
         0.25     6.27e-20
          0.3     6.35e-20
         0.35     6.42e-20
          0.4     6.49e-20
          0.5     6.59e-20
          0.7     6.73e-20
            1     6.85e-20
          1.2     6.91e-20
          1.3     6.92e-20
          1.5     6.96e-20
          1.7     6.97e-20
          1.9     6.98e-20
          2.1     6.98e-20
          2.2     6.98e-20
          2.5     6.96e-20
          2.8     6.92e-20
            3     6.89e-20
          3.3     6.82e-20
          3.6     6.73e-20
            4      6.6e-20
          4.5     6.49e-20
            5     6.31e-20
            6        6e-20
            7     5.68e-20
            8     5.35e-20
           10     4.72e-20
           12      4.2e-20
           15      3.5e-20
           17     3.15e-20
           20     2.64e-20
           25     2.05e-20
           30     1.74e-20
           50      1.1e-20
           75     0.88e-20
          100     0.75e-20
          150    0.605e-20
          200     0.52e-20
          300     0.41e-20
          500      0.3e-20
          750    0.235e-20
         1000     0.17e-20
    END_CROSS_SECTION

INTERACTION
    NAME ELECTRON_He_EXCITATION
    TYPE SUPERELASTIC
    PRIMARY ELECTRON
    SECONDARY HELIUM
    DE -19.8
    CROSS_SECTION
     1.980000e+1	0.000000e+0
     2.002000e+1	4.100000e-22
     2.024000e+1	4.600000e-22
     2.145000e+1	4.200000e-22
     2.180000e+1	5.500000e-22
     2.245000e+1	5.500000e-22
     2.422000e+1	7.300000e-22
     2.532000e+1	9.200000e-22
     2.753000e+1	1.080000e-21
     2.975000e+1	1.160000e-21
     3.418000e+1	1.210000e-21
     4.630000e+1	1.210000e-21
     1.000000e+2	1.150000e-21
     2.000000e+2	1.000000e-21
     4.000000e+2	6.000000e-22
     7.000000e+2	3.500000e-22
     1.000000e+3	2.500000e-22
    END_CROSS_SECTION

INTERACTION
    NAME ELECTRON_He_IONIZATION
    TYPE SUPERELASTIC
    PRIMARY ELECTRON
    SECONDARY HELIUM
    DE -24.6
    CROSS_SECTION
     2.460000e+1	0.000000e+0
     3.000000e+1	7.100000e-22
     3.400000e+1	1.210000e-21
     4.000000e+1	1.780000e-21
     4.500000e+1	2.120000e-21
     5.000000e+1	2.420000e-21
     6.000000e+1	2.890000e-21
     7.000000e+1	3.130000e-21
     8.000000e+1	3.320000e-21
     9.000000e+1	3.440000e-21
     1.000000e+2	3.510000e-21
     1.500000e+2	3.460000e-21
     2.000000e+2	3.240000e-21
     3.000000e+2	2.900000e-21
     5.000000e+2	2.200000e-21
     7.000000e+2	1.800000e-21
     1.000000e+3	1.400000e-21
    END_CROSS_SECTION
